# Pulseq sequence file
# Created by PyPulseq

[VERSION]
major 1
minor 3
revision 1post1

[DEFINITIONS]
Total duration 48.03103 
b1cwpe 3.75 
b0 3 
n_pulses 3 
tp 0.005 
offsets_ppm -2 -1.86666667 -1.73333333 -1.6 -1.46666667 -1.33333333 -1.2 -1.06666667 -0.933333333 -0.8 -0.666666667 -0.533333333 -0.4 -0.266666667 -0.133333333 0 0.133333333 0.266666667 0.4 0.533333333 0.666666667 0.8 0.933333333 1.06666667 1.2 1.33333333 1.46666667 1.6 1.73333333 1.86666667 2 
trec 0.5 1 2 3 1.5 1.5 1.5 1.5 1.5 1.5 1.5 1.5 1.5 1.5 1.5 1.5 1.5 1.5 1.5 1.5 1.5 1.5 1.5 1.5 1.5 1.5 1.5 3 2 1 0.5 
offsets_hz -255.4584 -238.42784 -221.39728 -204.36672 -187.33616 -170.3056 -153.27504 -136.24448 -119.21392 -102.18336 -85.1528 -68.12224 -51.09168 -34.06112 -17.03056 0 17.03056 34.06112 51.09168 68.12224 85.1528 102.18336 119.21392 136.24448 153.27504 170.3056 187.33616 204.36672 221.39728 238.42784 255.4584 

# Format of blocks:
#  #  D RF  GX  GY  GZ ADC EXT
[BLOCKS]
  1  0  0   1   2   3  0  0
  2  1  0   0   0   0  0  0
  3  0  1   0   0   0  0  0
  4  0  0   1   1   1  0  0
  5  0  0   0   0   0  1  0
  6  0  0   1   2   3  0  0
  7  2  0   0   0   0  0  0
  8  0  2   0   0   0  0  0
  9  0  0   1   1   1  0  0
 10  0  0   0   0   0  1  0
 11  0  0   1   2   3  0  0
 12  3  0   0   0   0  0  0
 13  0  3   0   0   0  0  0
 14  0  0   1   1   1  0  0
 15  0  0   0   0   0  1  0
 16  0  0   1   2   3  0  0
 17  4  0   0   0   0  0  0
 18  0  4   0   0   0  0  0
 19  0  0   1   1   1  0  0
 20  0  0   0   0   0  1  0
 21  0  0   1   2   3  0  0
 22  5  0   0   0   0  0  0
 23  0  5   0   0   0  0  0
 24  0  0   1   1   1  0  0
 25  0  0   0   0   0  1  0
 26  0  0   1   2   3  0  0
 27  5  0   0   0   0  0  0
 28  0  6   0   0   0  0  0
 29  0  0   1   1   1  0  0
 30  0  0   0   0   0  1  0
 31  0  0   1   2   3  0  0
 32  5  0   0   0   0  0  0
 33  0  7   0   0   0  0  0
 34  0  0   1   1   1  0  0
 35  0  0   0   0   0  1  0
 36  0  0   1   2   3  0  0
 37  5  0   0   0   0  0  0
 38  0  8   0   0   0  0  0
 39  0  0   1   1   1  0  0
 40  0  0   0   0   0  1  0
 41  0  0   1   2   3  0  0
 42  5  0   0   0   0  0  0
 43  0  9   0   0   0  0  0
 44  0  0   1   1   1  0  0
 45  0  0   0   0   0  1  0
 46  0  0   1   2   3  0  0
 47  5  0   0   0   0  0  0
 48  0 10   0   0   0  0  0
 49  0  0   1   1   1  0  0
 50  0  0   0   0   0  1  0
 51  0  0   1   2   3  0  0
 52  5  0   0   0   0  0  0
 53  0 11   0   0   0  0  0
 54  0  0   1   1   1  0  0
 55  0  0   0   0   0  1  0
 56  0  0   1   2   3  0  0
 57  5  0   0   0   0  0  0
 58  0 12   0   0   0  0  0
 59  0  0   1   1   1  0  0
 60  0  0   0   0   0  1  0
 61  0  0   1   2   3  0  0
 62  5  0   0   0   0  0  0
 63  0 13   0   0   0  0  0
 64  0  0   1   1   1  0  0
 65  0  0   0   0   0  1  0
 66  0  0   1   2   3  0  0
 67  5  0   0   0   0  0  0
 68  0 14   0   0   0  0  0
 69  0  0   1   1   1  0  0
 70  0  0   0   0   0  1  0
 71  0  0   1   2   3  0  0
 72  5  0   0   0   0  0  0
 73  0 15   0   0   0  0  0
 74  0  0   1   1   1  0  0
 75  0  0   0   0   0  1  0
 76  0  0   1   2   3  0  0
 77  5  0   0   0   0  0  0
 78  0 16   0   0   0  0  0
 79  0  0   1   1   1  0  0
 80  0  0   0   0   0  1  0
 81  0  0   1   2   3  0  0
 82  5  0   0   0   0  0  0
 83  0 17   0   0   0  0  0
 84  0  0   1   1   1  0  0
 85  0  0   0   0   0  1  0
 86  0  0   1   2   3  0  0
 87  5  0   0   0   0  0  0
 88  0 18   0   0   0  0  0
 89  0  0   1   1   1  0  0
 90  0  0   0   0   0  1  0
 91  0  0   1   2   3  0  0
 92  5  0   0   0   0  0  0
 93  0 19   0   0   0  0  0
 94  0  0   1   1   1  0  0
 95  0  0   0   0   0  1  0
 96  0  0   1   2   3  0  0
 97  5  0   0   0   0  0  0
 98  0 20   0   0   0  0  0
 99  0  0   1   1   1  0  0
100  0  0   0   0   0  1  0
101  0  0   1   2   3  0  0
102  5  0   0   0   0  0  0
103  0 21   0   0   0  0  0
104  0  0   1   1   1  0  0
105  0  0   0   0   0  1  0
106  0  0   1   2   3  0  0
107  5  0   0   0   0  0  0
108  0 22   0   0   0  0  0
109  0  0   1   1   1  0  0
110  0  0   0   0   0  1  0
111  0  0   1   2   3  0  0
112  5  0   0   0   0  0  0
113  0 23   0   0   0  0  0
114  0  0   1   1   1  0  0
115  0  0   0   0   0  1  0
116  0  0   1   2   3  0  0
117  5  0   0   0   0  0  0
118  0 24   0   0   0  0  0
119  0  0   1   1   1  0  0
120  0  0   0   0   0  1  0
121  0  0   1   2   3  0  0
122  5  0   0   0   0  0  0
123  0 25   0   0   0  0  0
124  0  0   1   1   1  0  0
125  0  0   0   0   0  1  0
126  0  0   1   2   3  0  0
127  5  0   0   0   0  0  0
128  0 26   0   0   0  0  0
129  0  0   1   1   1  0  0
130  0  0   0   0   0  1  0
131  0  0   1   2   3  0  0
132  5  0   0   0   0  0  0
133  0 27   0   0   0  0  0
134  0  0   1   1   1  0  0
135  0  0   0   0   0  1  0
136  0  0   1   2   3  0  0
137  4  0   0   0   0  0  0
138  0 28   0   0   0  0  0
139  0  0   1   1   1  0  0
140  0  0   0   0   0  1  0
141  0  0   1   2   3  0  0
142  3  0   0   0   0  0  0
143  0 29   0   0   0  0  0
144  0  0   1   1   1  0  0
145  0  0   0   0   0  1  0
146  0  0   1   2   3  0  0
147  2  0   0   0   0  0  0
148  0 30   0   0   0  0  0
149  0  0   1   1   1  0  0
150  0  0   0   0   0  1  0
151  0  0   1   2   3  0  0
152  1  0   0   0   0  0  0
153  0 31   0   0   0  0  0
154  0  0   1   1   1  0  0
155  0  0   0   0   0  1  0

# Format of RF events:
# id amplitude mag_id phase_id delay freq phase
# ..        Hz   ....     ....    us   Hz   rad
[RF]
1      159.661 1 2 100 -255.458 0
2      159.661 1 2 100 -238.428 0
3      159.661 1 2 100 -221.397 0
4      159.661 1 2 100 -204.367 0
5      159.661 1 2 100 -187.336 0
6      159.661 1 2 100 -170.306 0
7      159.661 1 2 100 -153.275 0
8      159.661 1 2 100 -136.244 0
9      159.661 1 2 100 -119.214 0
10      159.661 1 2 100 -102.183 0
11      159.661 1 2 100 -85.1528 0
12      159.661 1 2 100 -68.1222 0
13      159.661 1 2 100 -51.0917 0
14      159.661 1 2 100 -34.0611 0
15      159.661 1 2 100 -17.0306 0
16      159.661 1 2 100 0 0
17      159.661 1 2 100 17.0306 0
18      159.661 1 2 100 34.0611 0
19      159.661 1 2 100 51.0917 0
20      159.661 1 2 100 68.1222 0
21      159.661 1 2 100 85.1528 0
22      159.661 1 2 100 102.183 0
23      159.661 1 2 100 119.214 0
24      159.661 1 2 100 136.244 0
25      159.661 1 2 100 153.275 0
26      159.661 1 2 100 170.306 0
27      159.661 1 2 100 187.336 0
28      159.661 1 2 100 204.367 0
29      159.661 1 2 100 221.397 0
30      159.661 1 2 100 238.428 0
31      159.661 1 2 100 255.458 0

# Format of trapezoid gradients:
# id amplitude rise flat fall delay
# ..      Hz/m   us   us   us    us
[TRAP]
 1  1.36243e+06 1000 3500 1000   0
 2 -1.19213e+06 1000 3500 1000   0
 3  1.02182e+06 1000 3500 1000   0

# Format of ADC events:
# id num dwell delay freq phase
# ..  ..    ns    us   Hz   rad
[ADC]
1 1 1000000 0 0 0

# Format of delays:
# id delay (us)
[DELAYS]
1 500000
2 1000000
3 2000000
4 3000000
5 1500000

# Sequence Shapes
[SHAPES]

shape_id 1
num_samples 5030
1
0
0
4997
-1
0
0
27

shape_id 2
num_samples 5030
0
0
5028

